t[s],U_A,U_B
-10.13706493,0.11658070,1.95471000
-10.13573093,0.11963260,1.95776200
-10.13439693,0.12237920,1.96081400
-10.13306293,0.12512590,1.96539200
-10.13172893,0.12817770,1.96844400
-10.13039493,0.13092440,1.97149600
-10.12906093,0.13367110,1.97607400
-10.12772693,0.13519700,1.97912500
-10.12639293,0.13672290,1.98217700
-10.12505893,0.13794370,1.98522900
-10.12372493,0.13946960,1.98980700
-10.12239093,0.14099550,1.99285900
-10.12105693,0.14221630,1.99591100
-10.11972293,0.14374220,2.00048800
-10.11838893,0.14526810,2.00354000
-10.11705493,0.14648880,2.00659200
-10.11572093,0.14801480,2.01117000
-10.11438693,0.14954070,2.01422200
-10.11305293,0.15076140,2.01727300
-10.11171893,0.15228740,2.02032500
-10.11038493,0.15381330,2.02490300
-10.10905093,0.15503400,2.02795500
-10.10771693,0.15656000,2.03100700
-10.10638293,0.15656000,2.03558500
-10.10504893,0.15808590,2.03863600
-10.10371493,0.15808590,2.04168800
-10.10238093,0.15808590,2.04626600
-10.10104693,0.15930660,2.04931800
-10.09971293,0.16083250,2.05237000
-10.09837893,0.16083250,2.05542200
-10.09704493,0.16235850,2.05999900
-10.09571093,0.16357920,2.06305100
-10.09437693,0.16510510,2.06610300
-10.09304293,0.16663110,2.07068100
-10.09170893,0.16785180,2.07373300
-10.09037493,0.16785180,2.07678500
-10.08904093,0.16785180,2.08136200
-10.08770693,0.16785180,2.08441400
-10.08637293,0.16785180,2.08746600
-10.08503893,0.16785180,2.09051800
-10.08370493,0.16785180,2.09509600
-10.08237093,0.16785180,2.09814800
-10.08103693,0.16785180,2.10119900
-10.07970293,0.16785180,2.10577700
-10.07836893,0.16937770,2.10882900
-10.07703493,0.16937770,2.11188100
-10.07570093,0.16937770,2.11645900
-10.07436693,0.17090370,2.11951000
-10.07303293,0.17090370,2.12256200
-10.07169893,0.17090370,2.12561400
-10.07036493,0.17090370,2.13019200
-10.06903093,0.17090370,2.13324400
-10.06769693,0.17090370,2.13629600
-10.06636293,0.17090370,2.14087300
-10.06502893,0.17090370,2.14392500
-10.06369493,0.17090370,2.14697700
-10.06236093,0.17090370,2.15155500
-10.06102693,0.17090370,2.15460700
-10.05969293,0.17090370,2.15765900
-10.05835893,0.17090370,2.16071100
-10.05702493,0.17090370,2.16528800
-10.05569093,0.17090370,2.16834000
-10.05435693,0.17090370,2.10577700
-10.05302293,0.17090370,1.98370300
-10.05168893,0.17212440,1.86315500
-10.05035493,0.17212440,1.74108100
-10.04902093,0.17212440,1.62053300
-10.04768693,0.17212440,1.49845900
-10.04635293,0.17212440,1.37943700
-10.04501893,0.17212440,1.25736300
-10.04368493,0.17212440,1.13834000
-10.04235093,0.17212440,1.01931800
-10.04101693,0.17212440,0.89724420
-10.03968293,0.17212440,0.77669610
-10.03834893,0.17212440,0.65614800
-10.03701493,0.17212440,0.54322950
-10.03568093,0.17212440,0.54780730
-10.03434693,0.17365030,0.55085910
-10.03301293,0.17365030,0.55391100
-10.03167893,0.17517620,0.55848870
-10.03034493,0.17639700,0.56154060
-10.02901093,0.17639700,0.56459240
-10.02767693,0.17639700,0.56917020
-10.02634293,0.17639700,0.57222210
-10.02500893,0.17639700,0.57527390
-10.02367493,0.17639700,0.57832570
-10.02234093,0.17639700,0.58290360
-10.02100693,0.17639700,0.58595540
-10.01967293,0.17792290,0.59205910
-10.01833893,0.17792290,0.59663690
-10.01700493,0.17792290,0.59968870
-10.01567093,0.17944880,0.60426650
-10.01433693,0.17944880,0.60884430
-10.01300293,0.18066960,0.61342200
-10.01166893,0.18219550,0.61952580
-10.01033493,0.18372140,0.62257760
-10.00900093,0.18372140,0.62715540
-10.00766693,0.18372140,0.63173320
-10.00633293,0.18219550,0.63478500
-10.00499893,0.18372140,0.63936280
-10.00366493,0.18494220,0.64088880
-10.00233093,0.18494220,0.64394060
-10.00099693,0.18494220,0.64699240
-9.99966293,0.18494220,0.65157020
-9.99832893,0.18494220,0.65462200
-9.99699493,0.18494220,0.65767380
-9.99566093,0.18646810,0.66225170
-9.99432693,0.18799400,0.66530350
-9.99299293,0.18921480,0.66988120
-9.99165893,0.19074070,0.67445900
-9.99032493,0.19226660,0.67751100
-9.98899093,0.19226660,0.68208870
-9.98765693,0.19226660,0.68666640
-9.98632293,0.19348730,0.69124420
-9.98498893,0.19348730,0.69429610
-9.98365493,0.19348730,0.70039980
-9.98232093,0.19348730,0.70497760
-9.98098693,0.19348730,0.71108130
-9.97965293,0.19348730,0.71260720
-9.97831893,0.19348730,0.71565900
-9.97698493,0.19501330,0.71871090
-9.97565093,0.19653920,0.72176280
-9.97431693,0.19775990,0.72634050
-9.97298293,0.19928590,0.73091830
-9.97164893,0.20081180,0.73702200
-9.97031493,0.20203250,0.74007390
-9.96898093,0.20203250,0.74617760
-9.96764693,0.20355850,0.75075540
-9.96631293,0.20203250,0.75685910
-9.96497893,0.20203250,0.75991090
-9.96364493,0.20355850,0.76296280
-9.96231093,0.20508440,0.76906650
-9.96097693,0.20630510,0.77059240
-9.95964293,0.20630510,0.77364420
-9.95830893,0.20630510,0.77517020
-9.95697493,0.20783110,0.77669610
-9.95564093,0.20935700,0.78279980
-9.95430693,0.21057770,0.78585160
-9.95297293,0.21210360,0.79195530
-9.95163893,0.21362960,0.79500720
-9.95030493,0.21485030,0.79805900
-9.94897093,0.21485030,0.80111090
-9.94763693,0.21637620,0.80568860
-9.94630293,0.21485030,0.80874050
-9.94496893,0.21362960,0.81179240
-9.94363493,0.21485030,0.81637010
-9.94230093,0.21637620,0.82094790
-9.94096693,0.21759700,0.82399980
-9.93963293,0.21912290,0.82857750
-9.93829893,0.22064880,0.83162940
-9.93696493,0.22186960,0.83620720
-9.93563093,0.22339550,0.84078490
-9.93429693,0.22186960,0.84536270
-9.93296293,0.22339550,0.84841460
-9.93162893,0.22492140,0.85299230
-9.93029493,0.22492140,0.85604420
-9.92896093,0.22614220,0.85909610
-9.92762693,0.22614220,0.86519970
-9.92629293,0.22614220,0.86825160
-9.92495893,0.22614220,0.87130340
-9.92362493,0.22766810,0.87740710
-9.92229093,0.22766810,0.88045900
-9.92095693,0.22919400,0.88351080
-9.91962293,0.22919400,0.88808860
-9.91828893,0.22919400,0.89114050
-9.91695493,0.23041470,0.89419230
-9.91562093,0.23194070,0.89877010
-9.91428693,0.23346660,0.90182190
-9.91295293,0.23468730,0.90487380
-9.91161893,0.23621330,0.90945160
-9.91028493,0.23621330,0.91250350
-9.90895093,0.23468730,0.91555530
-9.90761693,0.23468730,0.91860710
-9.90628293,0.23468730,0.92318490
-9.90494893,0.23468730,0.92623670
-9.90361493,0.23468730,0.92928860
-9.90228093,0.23621330,0.93386640
-9.90094693,0.23621330,0.93691830
-9.89961293,0.23621330,0.93997010
-9.89827893,0.23773920,0.94454790
-9.89694493,0.23895990,0.94759970
-9.89561093,0.24048590,0.95065150
-9.89427693,0.24201180,0.95370350
-9.89294293,0.24323250,0.95828120
-9.89160893,0.24323250,0.96133300
-9.89027493,0.24323250,0.96438490
-9.88894093,0.24323250,0.96896270
-9.88760693,0.24323250,0.97201450
-9.88627293,0.24323250,0.97506640
-9.88493893,0.24323250,0.97811820
-9.88360493,0.24475840,0.98269610
-9.88227093,0.24475840,0.98574790
-9.88093693,0.24475840,0.98727380
-9.87960293,0.24628440,0.99185160
-9.87826893,0.24628440,0.99642930
-9.87693493,0.24628440,0.99948110
-9.87560093,0.24628440,1.00405900
-9.87426693,0.24750510,1.00711100
-9.87293293,0.24903100,1.01016300
-9.87159893,0.24903100,1.01321400
-9.87026493,0.24903100,1.01931800
-9.86893093,0.24903100,1.02237000
-9.86759693,0.24903100,1.02542200
-9.86626293,0.24903100,1.03152600
-9.86492893,0.24903100,1.03305100
-9.86359493,0.24903100,1.03915500
-9.86226093,0.24903100,1.04373300
-9.86092693,0.25055700,1.04678500
-9.85959293,0.25177770,1.05136300
-9.85825893,0.25177770,1.05441500
-9.85692493,0.25177770,1.05746600
-9.85559093,0.25177770,1.06357000
-9.85425693,0.25177770,1.06509600
-9.85292293,0.25177770,1.06814800
-9.85158893,0.25177770,1.07120000
-9.85025493,0.25177770,1.07577800
-9.84892093,0.25330360,1.07882900
-9.84758693,0.25330360,1.08188100
-9.84625293,0.25330360,1.08798500
-9.84491893,0.25330360,1.09256300
-9.84358493,0.25330360,1.09561500
-9.84225093,0.25330360,1.10171800
-9.84091693,0.25330360,1.10477000
-9.83958293,0.25177770,1.10934800
-9.83824893,0.25177770,1.11240000
-9.83691493,0.25330360,1.11545200
-9.83558093,0.25330360,1.11850300
-9.83424693,0.25330360,1.12308100
-9.83291293,0.25330360,1.12765900
-9.83157893,0.25330360,1.13376300
-9.83024493,0.25330360,1.13528900
-9.82891093,0.25330360,1.13834000
-9.82757693,0.25330360,1.14139200
-9.82624293,0.25330360,1.14444400
-9.82490893,0.25330360,1.14902200
-9.82357493,0.25482960,1.15207400
-9.82224093,0.25482960,1.15817700
-9.82090693,0.25482960,1.16122900
-9.81957293,0.25482960,1.16428100
-9.81823893,0.25482960,1.16885900
-9.81690493,0.25482960,1.17191100
-9.81557093,0.25482960,1.17496300
-9.81423693,0.25605030,1.17954000
-9.81290293,0.25605030,1.18259200
-9.81156893,0.25605030,1.18564400
-9.81023493,0.25605030,1.18869600
-9.80890093,0.25605030,1.19327400
-9.80756693,0.25605030,1.19632600
-9.80623293,0.25605030,1.19937700
-9.80489893,0.25605030,1.20395500
-9.80356493,0.25605030,1.20700700
-9.80223093,0.25605030,1.21005900
-9.80089693,0.25605030,1.21463700
-9.79956293,0.25605030,1.21768900
-9.79822893,0.25605030,1.22074000
-9.79689493,0.25605030,1.22379200
-9.79556093,0.25757620,1.22837000
-9.79422693,0.25757620,1.23142200
-9.79289293,0.25757620,1.23447400
-9.79155893,0.25757620,1.23905200
-9.79022493,0.25757620,1.24210300
-9.78889093,0.25757620,1.24515500
-9.78755693,0.25757620,1.24973300
-9.78622293,0.25757620,1.25278500
-9.78488893,0.25757620,1.25583700
-9.78355493,0.25757620,1.25888800
-9.78222093,0.25757620,1.26346600
-9.78088693,0.25757620,1.26651800
-9.77955293,0.25757620,1.26957000
-9.77821893,0.25757620,1.27414800
-9.77688493,0.25757620,1.27720000
-9.77555093,0.25757620,1.28025200
-9.77421693,0.25757620,1.28482900
-9.77288293,0.25757620,1.28788100
-9.77154893,0.25757620,1.29093300
-9.77021493,0.25757620,1.29398500
-9.76888093,0.25757620,1.29856300
-9.76754693,0.25757620,1.30161500
-9.76621293,0.25757620,1.30466600
-9.76487893,0.25757620,1.30924400
-9.76354493,0.25757620,1.31229600
-9.76221093,0.25757620,1.31534800
-9.76087693,0.25757620,1.31992600
-9.75954293,0.25757620,1.32297700
-9.75820893,0.25757620,1.32602900
-9.75687493,0.25757620,1.32908100
-9.75554093,0.25757620,1.33365900
-9.75420693,0.25910210,1.33671100
-9.75287293,0.25910210,1.33976200
-9.75153893,0.26032290,1.34434000
-9.75020493,0.26032290,1.34739200
-9.74887093,0.26032290,1.35044400
-9.74753693,0.26032290,1.35502200
-9.74620293,0.26032290,1.35807400
-9.74486893,0.26032290,1.36112600
-9.74353493,0.26032290,1.36417700
-9.74220093,0.26032290,1.36875500
-9.74086692,0.26032290,1.37180700
-9.73953292,0.26032290,1.37485900
-9.73819892,0.26032290,1.37943700
-9.73686492,0.26032290,1.38248800
-9.73553092,0.26184880,1.38554000
-9.73419692,0.26184880,1.39011800
-9.73286292,0.26184880,1.39317000
-9.73152892,0.26184880,1.39622200
-9.73019492,0.26184880,1.39927400
-9.72886092,0.26184880,1.40385200
-9.72752692,0.26184880,1.40690300
-9.72619292,0.26184880,1.40995500
-9.72485892,0.26184880,1.41453300
-9.72352492,0.26306950,1.41758500
-9.72219092,0.26306950,1.42216300
-9.72085692,0.26306950,1.42674000
-9.71952292,0.26306950,1.42979200
-9.71818892,0.26306950,1.43284400
-9.71685492,0.26459550,1.43742200
-9.71552092,0.26459550,1.44047400
-9.71418692,0.26459550,1.44352600
-9.71285292,0.26612140,1.44810300
-9.71151892,0.26734220,1.45115500
-9.71018492,0.26734220,1.45420700
-9.70885092,0.26734220,1.46031100
-9.70751692,0.26734220,1.46488800
-9.70618292,0.26734220,1.46946600
-9.70484892,0.26886810,1.47557000
-9.70351492,0.26886810,1.47862200
-9.70218092,0.26886810,1.48472500
-9.70084692,0.26886810,1.48930300
-9.69951292,0.26886810,1.49540700
-9.69817892,0.26886810,1.49845900
-9.69684492,0.26886810,1.50303700
-9.69551092,0.26886810,1.50761400
-9.69417692,0.26886810,1.51219200
-9.69284292,0.26886810,1.51524400
-9.69150892,0.27039400,1.51982200
-9.69017492,0.27039400,1.52440000
-9.68884092,0.27161470,1.52745100
-9.68750692,0.27161470,1.53202900
-9.68617292,0.27161470,1.53508100
-9.68483892,0.27314070,1.54118500
-9.68350492,0.27314070,1.54423700
-9.68217092,0.27314070,1.54728800
-9.68083692,0.27314070,1.55034000
-9.67950292,0.27466660,1.55644400
-9.67816892,0.27466660,1.55797000
-9.67683492,0.27588730,1.56102200
-9.67550092,0.27741320,1.56712500
-9.67416692,0.27893920,1.57017700
-9.67283292,0.28015990,1.57322900
-9.67149892,0.28168580,1.57780700
-9.67016492,0.28168580,1.58085900
-9.66883092,0.28168580,1.58543700
-9.66749692,0.28321180,1.59154000
-9.66616292,0.28168580,1.59459200
-9.66482892,0.28321180,1.60069600
-9.66349492,0.28443250,1.60527400
-9.66216092,0.28595840,1.60832500
-9.66082692,0.28595840,1.61290300
-9.65949292,0.28748430,1.61748100
-9.65815892,0.28870510,1.62358500
-9.65682492,0.29023100,1.62816200
-9.65549092,0.29175700,1.63426600
-9.65415692,0.29297770,1.63884400
-9.65282292,0.29450360,1.64189600
-9.65148892,0.29602950,1.64647400
-9.65015492,0.29602950,1.64952500
-9.64882092,0.29725030,1.65410300
-9.64748692,0.29877620,1.65868100
-9.64615292,0.30030210,1.66173300
-9.64481892,0.30152290,1.66478500
-9.64348492,0.30304880,1.67088800
-9.64215092,0.30457470,1.67394000
-9.64081692,0.30457470,1.67699200
-9.63948292,0.30579550,1.68157000
-9.63814892,0.30579550,1.68614800
-9.63681492,0.30732140,1.69225100
-9.63548092,0.30854210,1.69682900
-9.63414692,0.31006810,1.70140700
-9.63281292,0.31159400,1.70598500
-9.63147892,0.31159400,1.70903700
-9.63014492,0.31281470,1.71208800
-9.62881092,0.31434070,1.71819200
-9.62747692,0.31434070,1.72124400
-9.62614292,0.31434070,1.72429600
-9.62480892,0.31586660,1.72887300
-9.62347492,0.31708730,1.73192500
-9.62214092,0.31861320,1.73497700
-9.62080692,0.32013920,1.73955500
-9.61947292,0.31861320,1.74413300
-9.61813892,0.32013920,1.74718500
-9.61680492,0.32135990,1.75328800
-9.61547092,0.32288580,1.75786600
-9.61413692,0.32441170,1.76244400
-9.61280292,0.32563250,1.76549600
-9.61146892,0.32715840,1.76854800
-9.61013492,0.32868440,1.77465100
-9.60880092,0.32990510,1.77770300
-9.60746692,0.33143100,1.78075500
-9.60613292,0.33143100,1.78533300
-9.60479892,0.33295690,1.78838500
-9.60346492,0.33295690,1.79143700
-9.60213092,0.33417770,1.79754000
-9.60079692,0.33570360,1.80059200
-9.59946292,0.33570360,1.80517000
-9.59812892,0.33570360,1.80974800
-9.59679492,0.33722950,1.81279900
-9.59546092,0.33845030,1.81737700
-9.59412692,0.33845030,1.82195500
-9.59279292,0.33997620,1.82500700
-9.59145892,0.33997620,1.82805900
-9.59012492,0.33997620,1.83263600
-9.58879092,0.33997620,1.83568800
-9.58745692,0.33997620,1.83874000
-9.58612292,0.33997620,1.84331800
-9.58478892,0.34150210,1.84789600
-9.58345492,0.34272290,1.85094800
-9.58212092,0.34272290,1.85552500
-9.58078692,0.34424880,1.85857700
-9.57945292,0.34424880,1.86315500
-9.57811892,0.34424880,1.86773300
-9.57678492,0.34424880,1.87231100
-9.57545092,0.34577470,1.87841400
-9.57411692,0.34577470,1.88146600
-9.57278292,0.34577470,1.88604400
-9.57144892,0.34577470,1.89214800
-9.57011492,0.34577470,1.89672500
-9.56878092,0.34577470,1.90282900
-9.56744692,0.34577470,1.90588100
-9.56611292,0.34577470,1.91198500
-9.56477892,0.34577470,1.91656200
-9.56344492,0.34577470,1.92114000
-9.56211092,0.34577470,1.92724400
-9.56077692,0.34577470,1.93029600
-9.55944292,0.34577470,1.93639900
-9.55810892,0.34577470,1.94097700
-9.55677492,0.34577470,1.94708100
-9.55544092,0.34699540,1.95013300
-9.55410692,0.34699540,1.95471000
-9.55277292,0.34699540,1.95928800
-9.55143892,0.34699540,1.96386600
-9.55010492,0.34699540,1.96997000
-9.54877092,0.34699540,1.97454800
-9.54743692,0.34699540,1.97912500
-9.54610292,0.34699540,1.98522900
-9.54476892,0.34699540,1.98980700
-9.54343492,0.34699540,1.99438500
-9.54210092,0.34699540,1.99896200
-9.54076692,0.34699540,2.00506600
-9.53943292,0.34699540,2.00811800
-9.53809892,0.34699540,2.01269600
-9.53676492,0.34699540,2.01727300
-9.53543092,0.34699540,2.02185100
-9.53409692,0.34852140,2.02795500
-9.53276292,0.34852140,2.03253300
-9.53142892,0.34852140,2.03558500
-9.53009492,0.34852140,2.04168800
-9.52876092,0.34852140,2.04474000
-9.52742692,0.34852140,2.05084400
-9.52609292,0.34852140,2.05542200
-9.52475892,0.34852140,2.05847400
-9.52342492,0.34852140,2.06457700
-9.52209092,0.34852140,2.06762900
-9.52075692,0.34852140,2.07068100
-9.51942292,0.34852140,2.07678500
-9.51808892,0.34852140,2.08136200
-9.51675492,0.34852140,2.08746600
-9.51542092,0.34852140,2.09204400
-9.51408692,0.34852140,2.09662200
-9.51275292,0.35004730,2.10119900
-9.51141892,0.35004730,2.10577700
-9.51008492,0.35004730,2.11035500
-9.50875092,0.35004730,2.11493300
-9.50741692,0.35004730,2.11951000
-9.50608292,0.35126810,2.12256200
-9.50474892,0.35126810,2.12561400
-9.50341492,0.35279400,2.12866600
-9.50208092,0.35401470,2.13477000
-9.50074692,0.35401470,2.13782200
-9.49941292,0.35401470,2.14239900
-9.49807892,0.35554060,2.14545100
-9.49674492,0.35554060,2.14850300
-9.49541092,0.35706660,2.15155500
-9.49407692,0.35706660,2.15613300
-9.49274292,0.35706660,2.15918400
-9.49140892,0.35706660,2.16223600
-9.49007492,0.35706660,2.16681400
-9.48874092,0.35706660,2.17139200
-9.48740692,0.35706660,2.17444400
-9.48607292,0.35706660,2.17902200
-9.48473892,0.35828730,2.18359900
-9.48340492,0.35828730,2.18665100
-9.48207092,0.35828730,2.19122900
-9.48073692,0.35981320,2.19428100
-9.47940292,0.35981320,2.19733300
-9.47806892,0.35981320,2.20191000
-9.47673492,0.36133920,2.20496200
-9.47540092,0.36255990,2.20801400
-9.47406692,0.36408580,2.21259200
-9.47273292,0.36561170,2.21717000
-9.47139892,0.36561170,2.22022200
-9.47006492,0.36683250,2.22479900
-9.46873092,0.36835840,2.22785100
-9.46739692,0.36988430,2.23090300
-9.46606292,0.36988430,2.23548100
-9.46472892,0.37110510,2.23853300
-9.46339492,0.37110510,2.24158500
-9.46206092,0.37110510,2.24616200
-9.46072692,0.37110510,2.25074000
-9.45939292,0.37263100,2.25379200
-9.45805892,0.37415690,2.25837000
-9.45672492,0.37537770,2.26142100
-9.45539092,0.37690360,2.26447300
-9.45405692,0.37690360,2.26752500
-9.45272292,0.37842950,2.27210300
-9.45138892,0.37965030,2.27515500
-9.45005492,0.38117620,2.27820700
-9.44872092,0.38117620,2.28278400
-9.44738692,0.38270210,2.28583600
-9.44605292,0.38392280,2.28888800
-9.44471892,0.38544880,2.29346600
-9.44338492,0.38697470,2.29651800
-9.44205092,0.38819550,2.29957000
-9.44071692,0.38972140,2.30414700
-9.43938292,0.39124730,2.30719900
-9.43804892,0.39246800,2.31025100
-9.43671492,0.39399390,2.31330300
-9.43538092,0.39551990,2.31788100
-9.43404692,0.39674060,2.32093300
-9.43271292,0.39826660,2.32398500
-9.43137892,0.39948730,2.32856200
-9.43004492,0.40101320,2.33161400
-9.42871092,0.40253910,2.33466600
-9.42737692,0.40375990,2.33924400
-9.42604292,0.40528580,2.34229600
-9.42470892,0.40681170,2.34534700
-9.42337492,0.40803250,2.35145100
-9.42204092,0.40955840,2.35450300
-9.42070692,0.40955840,2.35755500
-9.41937292,0.41108430,2.36213300
-9.41803892,0.41108430,2.36518400
-9.41670492,0.41108430,2.36823600
-9.41537092,0.41230510,2.37128800
-9.41403692,0.41383100,2.37586600
-9.41270292,0.41383100,2.37891800
-9.41136892,0.41535690,2.38502100
-9.41003492,0.41535690,2.38807300
-9.40870092,0.41657770,2.39265100
-9.40736692,0.41810360,2.39875500
-9.40603292,0.41962950,2.40180700
-9.40469892,0.42085020,2.40485900
-9.40336492,0.42237620,2.41096200
-9.40203092,0.42390210,2.41401400
-9.40069692,0.42512280,2.42011800
-9.39936292,0.42512280,2.42469600
-9.39802892,0.42664880,2.42774700
-9.39669492,0.42817470,2.43232500
-9.39536092,0.42817470,2.43537700
-9.39402692,0.42939540,2.43995500
-9.39269292,0.43092130,2.44453300
-9.39135892,0.43092130,2.44911100
-9.39002492,0.43092130,2.45216200
-9.38869092,0.43092130,2.45826600
-9.38735692,0.43092130,2.46131800
-9.38602292,0.43244730,2.46742200
-9.38468892,0.43244730,2.47199900
-9.38335492,0.43244730,2.47810300
-9.38202092,0.43244730,2.48115500
-9.38068692,0.43366800,2.48268100
